 Spectral energy distribution at the surface of the nebula: 
   viewPoints =    1.57000005       0.00000000      , 
    nu [Ryd]        lambda [um]         F(nu)*D^2            
                                        [Jy * pc^2]              
   1.00099999E-06   91035.7344       0.00000000       0.00000000    
   1.03318996E-06   88199.4375       0.00000000       0.00000000    
   1.06641551E-06   85451.4688       0.00000000       0.00000000    
   1.10070948E-06   82789.1250       0.00000000       0.00000000    
   1.13610633E-06   80209.7188       0.00000000       0.00000000    
   1.17264142E-06   77710.6875       0.00000000       0.00000000    
   1.21035146E-06   75289.5156       0.00000000       0.00000000    
   1.24927419E-06   72943.7734       0.00000000       0.00000000    
   1.28944851E-06   70671.1250       0.00000000       0.00000000    
   1.30000001E-06   70097.5156       0.00000000       0.00000000    
   1.33091487E-06   68469.2734       0.00000000       0.00000000    
   1.37371467E-06   66336.0234       0.00000000       0.00000000    
   1.41789087E-06   64269.2461       0.00000000       0.00000000    
   1.46348759E-06   62266.8555       0.00000000       0.00000000    
   1.48943400E-06   61182.1445       0.00000000       0.00000000    
   1.48943423E-06   61182.1406       0.00000000       0.00000000    
   1.51055076E-06   60326.8516       0.00000000       0.00000000    
   1.55912733E-06   58447.2930       0.00000000       0.00000000    
   1.60926606E-06   56626.2930       0.00000000       0.00000000    
   1.66101711E-06   54862.0352       0.00000000       0.00000000    
   1.71443241E-06   53152.7383       0.00000000       0.00000000    
   1.76956542E-06   51496.6953       0.00000000       0.00000000    
   1.82647148E-06   49892.2539       0.00000000       0.00000000    
   1.88520744E-06   48337.7969       0.00000000       0.00000000    
   1.94583231E-06   46831.7695       0.00000000       0.00000000    
   2.00840668E-06   45372.6719       0.00000000       0.00000000    
   2.07299354E-06   43959.0273       0.00000000       0.00000000    
   2.13965723E-06   42589.4258       0.00000000       0.00000000    
   2.20846459E-06   41262.5039       0.00000000       0.00000000    
   2.27948499E-06   39976.9102       0.00000000       0.00000000    
   2.35278912E-06   38731.3828       0.00000000       0.00000000    
   2.42845044E-06   37524.6602       0.00000000       0.00000000    
   2.50654512E-06   36355.5273       0.00000000       0.00000000    
   2.58715090E-06   35222.8320       0.00000000       0.00000000    
   2.67034898E-06   34125.4180       0.00000000       0.00000000    
   2.75622256E-06   33062.1992       0.00000000       0.00000000    
   2.84485782E-06   32032.1035       0.00000000       0.00000000    
   2.93634321E-06   31034.0996       0.00000000       0.00000000    
   3.03077059E-06   30067.1953       0.00000000       0.00000000    
   3.12823477E-06   29130.4160       0.00000000       0.00000000    
   3.22883307E-06   28222.8203       0.00000000       0.00000000    
   3.33266644E-06   27343.5020       0.00000000       0.00000000    
   3.43983902E-06   26491.5820       0.00000000       0.00000000    
   3.55045813E-06   25666.2012       0.00000000       0.00000000    
   3.66463428E-06   24866.5410       0.00000000       0.00000000    
   3.78248228E-06   24091.7930       0.00000000       0.00000000    
   3.90412015E-06   23341.1816       0.00000000       0.00000000    
   4.02966953E-06   22613.9570       0.00000000       0.00000000    
   4.15925660E-06   21909.3887       0.00000000       0.00000000    
   4.29301053E-06   21226.7773       0.00000000       0.00000000    
   4.43106592E-06   20565.4297       0.00000000       0.00000000    
   4.57356100E-06   19924.6875       0.00000000       0.00000000    
   4.72063857E-06   19303.9082       0.00000000       0.00000000    
   4.87244552E-06   18702.4727       0.00000000       0.00000000    
   5.02913463E-06   18119.7715       4982746.00       0.00000000    
   5.19086234E-06   17555.2285       0.00000000       0.00000000    
   5.35779100E-06   17008.2715       0.00000000       0.00000000    
   5.53008795E-06   16478.3594       0.00000000       0.00000000    
   5.70792554E-06   15964.9551       8780388.00       0.00000000    
   5.89148203E-06   15467.5469       0.00000000       0.00000000    
   6.08094160E-06   14985.6357       0.00000000       0.00000000    
   6.27649388E-06   14518.7383       0.00000000       0.00000000    
   6.47833440E-06   14066.3887       0.00000000       0.00000000    
   6.68666598E-06   13628.1328       0.00000000       0.00000000    
   6.90169691E-06   13203.5322       0.00000000       0.00000000    
   7.12364272E-06   12792.1592       3517709.25       0.00000000    
   7.35272624E-06   12393.6035       0.00000000       0.00000000    
   7.58917668E-06   12007.4658       3301927.50       1.68859264E+09
   7.83323048E-06   11633.3584       0.00000000       0.00000000    
   8.08513323E-06   11270.9053       0.00000000       0.00000000    
   8.34513685E-06   10919.7461       0.00000000       0.00000000    
   8.61350145E-06   10579.5273       0.00000000       0.00000000    
   8.89049534E-06   10249.9092       0.00000000       0.00000000    
   9.17639773E-06   9930.56055       0.00000000       0.00000000    
   9.47149420E-06   9621.16211       2645716.50       0.00000000    
   9.77608033E-06   9321.40137       0.00000000       0.00000000    
   1.00904608E-05   9030.98242       0.00000000       0.00000000    
   1.04149522E-05   8749.61035       0.00000000       0.00000000    
   1.07498781E-05   8477.00488       2331087.75       0.00000000    
   1.10955743E-05   8212.89453       0.00000000       0.00000000    
   1.14523882E-05   7957.01074       0.00000000       0.00000000    
   1.18206763E-05   7709.10010       0.00000000       0.00000000    
   1.22008078E-05   7468.91309       0.00000000       0.00000000    
   1.25931638E-05   7236.20947       1989880.38       0.00000000    
   1.29981372E-05   7010.75635       0.00000000       0.00000000    
   1.34161337E-05   6792.32764       0.00000000       0.00000000    
   1.38475725E-05   6580.70361       1809624.50       925434816.    
   1.42928848E-05   6375.67383       0.00000000       0.00000000    
   1.47525179E-05   6177.03223       1698618.38       0.00000000    
   1.52269322E-05   5984.57861       0.00000000       0.00000000    
   1.57166032E-05   5798.12109       0.00000000       0.00000000    
   1.62220203E-05   5617.47363       0.00000000       0.00000000    
   1.67436920E-05   5442.45410       2993233.25       0.00000000    
   1.72821383E-05   5272.88818       0.00000000       0.00000000    
   1.78378996E-05   5108.60449       1404813.00       0.00000000    
   1.84115343E-05   4949.43945       0.00000000       0.00000000    
   1.90036153E-05   4795.23340       2637277.00       0.00000000    
   1.96147375E-05   4645.83203       0.00000000       0.00000000    
   2.02455121E-05   4501.08545       0.00000000       0.00000000    
   2.08965721E-05   4360.84814       0.00000000       0.00000000    
   2.15685668E-05   4224.98096       0.00000000       0.00000000    
   2.22621729E-05   4093.34595       2251254.25       0.00000000    
   2.29780835E-05   3965.81274       0.00000000       0.00000000    
   2.37170170E-05   3842.25317       0.00000000       0.00000000    
   2.44797138E-05   3722.54248       1023658.81       0.00000000    
   2.52669379E-05   3606.56177       1983531.50       0.00000000    
   2.60794768E-05   3494.19482       0.00000000       0.00000000    
   2.69181455E-05   3385.32886       1861858.88       0.00000000    
   2.77837844E-05   3279.85474       901925.812       0.00000000    
   2.86772593E-05   3177.66675       873824.875       0.00000000    
   2.95994687E-05   3078.66235       0.00000000       0.00000000    
   3.05513349E-05   2982.74268       820223.500       419459072.    
   3.15338075E-05   2889.81201       0.00000000       0.00000000    
   3.25478795E-05   2799.77612       769908.625       0.00000000    
   3.35945588E-05   2712.54565       0.00000000       0.00000000    
   3.46749002E-05   2628.03296       722681.188       0.00000000    
   3.57899808E-05   2546.15308       1400329.38       0.00000000    
   3.69409245E-05   2466.82446       678349.875       346905440.    
   3.81288773E-05   2389.96753       657215.812       0.00000000    
   3.93550326E-05   2315.50488       0.00000000       0.00000000    
   4.06206200E-05   2243.36230       616900.688       0.00000000    
   4.19269054E-05   2173.46753       0.00000000       0.00000000    
   4.32751985E-05   2105.75049       1158118.88       296128704.    
   4.46668491E-05   2040.14331       1683053.88       0.00000000    
   4.61032541E-05   1976.58020       0.00000000       0.00000000    
   4.75858506E-05   1914.99719       526603.875       0.00000000    
   4.91161263E-05   1855.33301       510197.156       0.00000000    
   5.06956094E-05   1797.52795       494301.312       0.00000000    
   5.23258896E-05   1741.52356       478900.156       0.00000000    
   5.40085966E-05   1687.26416       0.00000000       0.00000000    
   5.57454150E-05   1634.69543       899048.625       229884960.    
   5.75380836E-05   1583.76453       871036.875       0.00000000    
   5.93884070E-05   1534.42029       421949.500       0.00000000    
   6.12982258E-05   1486.61365       0.00000000       0.00000000    
   6.32694719E-05   1440.29614       792132.000       0.00000000    
   6.53040988E-05   1395.42188       1151180.38       0.00000000    
   6.74041585E-05   1351.94580       371770.344       0.00000000    
   6.95717608E-05   1309.82410       1440749.88       0.00000000    
   7.18090596E-05   1269.01489       697931.562       0.00000000    
   7.41183103E-05   1229.47717       0.00000000       0.00000000    
   7.65018194E-05   1191.17139       982678.375       0.00000000    
   7.89619808E-05   1154.05884       952061.750       0.00000000    
   8.15012536E-05   1118.10278       307466.562       0.00000000    
   8.41221845E-05   1083.26685       1191548.25       0.00000000    
   8.68274001E-05   1049.51636       865817.375       0.00000000    
   8.96196143E-05   1016.81738       279613.719       0.00000000    
   9.25016211E-05   985.137085       1354511.50       277076736.    
   9.54763018E-05   954.443909       787386.250       0.00000000    
   9.85466468E-05   924.707031       254282.312       0.00000000    
   1.01715785E-04   895.896118       739072.938       125986336.    
   1.04986837E-04   867.982849       716045.625       0.00000000    
   1.08363085E-04   840.939270       1387472.25       0.00000000    
   1.11847905E-04   814.738342       896162.000       0.00000000    
   1.15444796E-04   789.353638       868240.625       0.00000000    
   1.19157354E-04   764.760010       630891.625       0.00000000    
   1.22989310E-04   740.932495       2444940.00       0.00000000    
   1.26944491E-04   717.847412       986984.750       0.00000000    
   1.31026871E-04   695.481628       956234.312       97802888.0    
   1.35240523E-04   673.812622       1852881.25       94755616.0    
   1.39589698E-04   652.818726       1436119.50       91803224.0    
   1.44078731E-04   632.479065       1565298.62       0.00000000    
   1.48712119E-04   612.773010       2190541.75       172343728.    
   1.53494519E-04   593.680969       1795785.88       166974112.    
   1.58430703E-04   575.183777       2056169.62       0.00000000    
   1.63525634E-04   557.262939       2605058.25       156731328.    
   1.68784420E-04   539.900391       2969286.00       227772144.    
   1.74212313E-04   523.078857       2589095.00       73558480.0    
   1.79814771E-04   506.781372       2647785.25       71266664.0    
   1.85597382E-04   490.991699       2700304.50       0.00000000    
   1.91565967E-04   475.693970       3008595.50       66894932.0    
   1.97726491E-04   460.872864       3421791.00       129621488.    
   2.04085125E-04   446.513550       2578473.75       0.00000000    
   2.10648243E-04   432.601624       4282517.00       60835048.0    
   2.17422436E-04   419.123138       4149085.50       58939600.0    
   2.24414471E-04   406.064606       5918061.00       342619552.    
   2.31631362E-04   393.412933       5409129.50       165972432.    
   2.39080327E-04   381.155457       5974285.50       428803648.    
   2.46768846E-04   369.279907       7920605.00       259651600.    
   2.54704646E-04   357.774323       7083528.50       150936992.    
   2.62895628E-04   346.627197       9531714.00       389958464.    
   2.71350029E-04   335.827393       11820476.0       519487392.    
   2.80076289E-04   325.364136       11631129.0       320283008.    
   2.89083197E-04   315.226807       12308922.0       664936704.    
   2.98379746E-04   305.405365       14948737.0       558323264.    
   3.07975279E-04   295.889893       17412104.0       790586816.    
   3.17879370E-04   286.670929       19943960.0       765955136.    
   3.28101974E-04   277.739197       21613748.0       820204352.    
   3.38653335E-04   269.085724       21902272.0       1.09737395E+09
   3.49543989E-04   260.701874       25807922.0       1.13650573E+09
   3.60784907E-04   252.579224       28823826.0       1.42076813E+09
   3.72387294E-04   244.709686       29608074.0       1.85827981E+09
   3.84362793E-04   237.085312       34879036.0       1.40029645E+09
   3.96723422E-04   229.698517       39982276.0       1.64738150E+09
   4.09481552E-04   222.541840       41184332.0       1.40828237E+09
   4.22649988E-04   215.608124       48320100.0       1.81920627E+09
   4.36241884E-04   208.890472       50548360.0       1.67440166E+09
   4.50270862E-04   202.382111       61216720.0       2.44757683E+09
   4.64751036E-04   196.076538       67073500.0       2.59190502E+09
   4.79696842E-04   189.967422       72035912.0       2.75158323E+09
   4.95123270E-04   184.048660       76674368.0       3.44230938E+09
   5.11045859E-04   178.314285       90466368.0       4.13747507E+09
   5.27480443E-04   172.758591       99334216.0       3.88709888E+09
   5.44443552E-04   167.375992       107929688.       4.30734387E+09
   5.61952183E-04   162.161087       121824760.       4.28716083E+09
   5.80023858E-04   157.108673       137169216.       5.19198054E+09
   5.98676677E-04   152.213669       145327504.       6.35732480E+09
   6.17929385E-04   147.471176       160873392.       6.42883840E+09
   6.37801248E-04   142.876450       180692640.       7.51442893E+09
   6.58312114E-04   138.424881       198168368.       7.53335859E+09
   6.79482648E-04   134.112000       212756576.       8.69424742E+09
   7.01333920E-04   129.933502       233925504.       9.90339482E+09
   7.23887933E-04   125.885193       253015600.       1.04622551E+10
   7.47167272E-04   121.963013       276757984.       1.10967306E+10
   7.71195279E-04   118.163033       300758976.       1.23960484E+10
   7.95995933E-04   114.481461       335900704.       1.31689503E+10
   8.21594207E-04   110.914574       360538272.       1.49578670E+10
   8.48015654E-04   107.458839       390732672.       1.61389814E+10
   8.75286758E-04   104.110771       429891296.       1.76126259E+10
   9.03434877E-04   100.867012       465287584.       1.87943547E+10
   9.32488241E-04   97.7243195       495668928.       1.98991053E+10
   9.62475897E-04   94.6795349       539638336.       2.20751217E+10
   9.93427937E-04   91.7296295       576326848.       2.33609503E+10
   1.02537533E-03   88.8716354       628826688.       2.55825388E+10
   1.05835008E-03   86.1026840       673706368.       2.70133842E+10
   1.09238527E-03   83.4199982       733047680.       2.95853998E+10
   1.12751510E-03   80.8208923       774413504.       3.17553152E+10
   1.16377452E-03   78.3027725       834649792.       3.33317816E+10
   1.20120007E-03   75.8631134       885325312.       3.56432732E+10
   1.23982923E-03   73.4994583       944993088.       3.68895017E+10
   1.27970055E-03   71.2094498       1.01459418E+09   4.05370307E+10
   1.32085406E-03   68.9907990       1.06336486E+09   4.31354225E+10
   1.36333110E-03   66.8412628       1.13048051E+09   4.56265933E+10
   1.40717416E-03   64.7587051       1.19697434E+09   4.80571187E+10
   1.45242712E-03   62.7410316       1.25289830E+09   5.02300590E+10
   1.49913540E-03   60.7862244       1.30564531E+09   5.19646208E+10
   1.54734566E-03   58.8923187       1.38093274E+09   5.44616120E+10
   1.59710646E-03   57.0574226       1.43483712E+09   5.73543424E+10
   1.64846738E-03   55.2796936       1.49478003E+09   6.00684503E+10
   1.70148001E-03   53.5573578       1.56832000E+09   6.28815299E+10
   1.75619754E-03   51.8886833       1.62407526E+09   6.42425487E+10
   1.81267457E-03   50.2719955       1.69666010E+09   6.73806459E+10
   1.87096803E-03   48.7056808       1.72912474E+09   6.91919831E+10
   1.93113601E-03   47.1881676       1.75807821E+09   7.05530102E+10
   1.99323893E-03   45.7179375       1.78885402E+09   7.08297032E+10
   2.05733906E-03   44.2935104       1.81915674E+09   7.22603377E+10
   2.12350045E-03   42.9134712       1.83664627E+09   7.24772209E+10
   2.19178945E-03   41.5764275       1.84852288E+09   7.33234463E+10
   2.26227473E-03   40.2810364       1.87002995E+09   7.47039867E+10
   2.33502663E-03   39.0260124       1.87743078E+09   7.55812188E+10
   2.41011824E-03   37.8100853       1.89720205E+09   7.63792179E+10
   2.48762476E-03   36.6320419       1.88850445E+09   7.50609285E+10
   2.56762351E-03   35.4907074       1.88749504E+09   7.45289400E+10
   2.65019503E-03   34.3849335       1.88161856E+09   7.51997747E+10
   2.73542223E-03   33.3136024       1.87762086E+09   7.53350738E+10
   2.82338983E-03   32.2756577       1.86706880E+09   7.39548447E+10
   2.91418657E-03   31.2700539       1.84056883E+09   7.30972324E+10
   3.00790323E-03   30.2957783       1.83300352E+09   7.33077750E+10
   3.10463365E-03   29.3518600       1.78815411E+09   7.13458565E+10
   3.20447469E-03   28.4373531       1.73431142E+09   6.98586481E+10
   3.30752670E-03   27.5513344       1.69209203E+09   6.70466540E+10
   3.41389258E-03   26.6929245       1.63394240E+09   6.59072532E+10
   3.52367922E-03   25.8612556       1.58641075E+09   6.37519503E+10
   3.63699626E-03   25.0555038       1.52122957E+09   6.10927043E+10
   3.75395757E-03   24.2748547       1.44603597E+09   5.74210826E+10
   3.87468003E-03   23.5185280       1.37665293E+09   5.50697411E+10
   3.99928493E-03   22.7857666       1.30018982E+09   5.19312220E+10
   4.12789686E-03   22.0758343       1.22330970E+09   4.86895821E+10
   4.26064525E-03   21.3880234       1.15820096E+09   4.59243930E+10
   4.39766189E-03   20.7216434       1.07289613E+09   4.30394491E+10
   4.53908555E-03   20.0760193       1.00986982E+09   3.99141765E+10
   4.68505686E-03   19.4505157       920107520.       3.66164623E+10
   4.83572250E-03   18.8445015       818786560.       3.30349261E+10
   4.99123335E-03   18.2573662       711477312.       2.81135821E+10
   5.15174493E-03   17.6885262       606706880.       2.40289055E+10
   5.31741884E-03   17.1374073       507703040.       2.04654141E+10
   5.48842037E-03   16.6034603       416470048.       1.69932483E+10
   5.66492090E-03   16.0861511       337749920.       1.32922798E+10
   5.84709784E-03   15.5849590       280642272.       1.09736980E+10
   6.03513326E-03   15.0993805       227940256.       9.05624678E+09
   6.22921530E-03   14.6289330       193294896.       7.62202778E+09
   6.42953953E-03   14.1731415       170199328.       6.86027366E+09
   6.59999996E-03   13.8070879       160850224.       6.32960614E+09
   6.63630525E-03   13.7315531       161996176.       6.62821734E+09
   6.84972061E-03   13.3037205       164879520.       6.69850573E+09
   6.89999992E-03   13.2067795       166404912.       6.54172518E+09
   7.06999889E-03   12.8892202       163907104.       6.74252134E+09
